Depth from 78-32 top (m) P-wave velocity (m/s) S-wave velocity (m/s)
101.767562 1567.817105 850.771671
102.785238 1568.420788 852.049669
103.802913 1568.216640 853.331149
104.820589 1568.417099 854.616489
105.838264 1575.005296 857.127184
106.855940 1581.647824 859.652305
107.873616 1588.345357 862.192720
108.891291 1595.099853 864.747446
109.908967 1601.387442 868.503755
110.926643 1608.354436 872.292459
111.944318 1614.636356 876.114747
112.961994 1621.608912 879.969905
113.979669 1633.206352 885.026241
114.997345 1644.968166 890.140624
116.015021 1656.231031 895.313660
117.032696 1667.201561 900.547578
118.050372 1678.318392 905.842229
119.068048 1689.583045 909.739719
120.085723 1700.999933 913.669640
121.103399 1711.758669 918.827136
122.121074 1723.475285 924.042334
123.138750 1735.353400 929.317073
124.156426 1746.550998 934.651940
125.174101 1750.067596 938.580247
126.191777 1753.595309 942.542159
127.209452 1756.472161 946.537212
128.227128 1759.356920 950.566276
129.244804 1762.886480 953.197979
130.262479 1765.030336 955.843838
131.280155 1767.182537 958.504886
132.297831 1769.357210 961.180329
133.315506 1766.172845 962.488456
134.333182 1764.312544 963.800148
135.350857 1762.453053 965.115421
136.368533 1762.487222 966.433821
137.386209 1763.780416 969.015253
138.403884 1765.677005 971.611456
139.421560 1767.576114 974.220660
140.439236 1771.305036 976.714158
141.456911 1775.642272 979.219973
142.474587 1781.148502 981.739161
143.492262 1788.404877 984.271344
144.509938 1798.022714 986.816136
145.527614 1808.812171 989.374611
146.545289 1821.531781 991.945403
147.562965 1839.643771 994.530085
148.580640 1860.025631 997.128768
149.598316 1882.533664 999.740068
150.615992 1906.121605 1002.365080
151.633667 1932.066606 1006.234124
152.651343 1959.787128 1010.133151
153.669019 1987.595417 1014.061998
154.686694 2016.202201 1018.021526
155.704370 2046.299574 1022.012097
156.722045 2075.567253 1024.622183
157.739721 2105.828407 1027.246164
158.757397 2137.535443 1029.883618
159.775072 2169.063301 1031.174466
160.792748 2201.169261 1032.469088
161.810424 2232.922885 1033.766964
162.828099 2263.429208 1035.067572
163.845775 2291.562353 1036.371993
164.863450 2319.760415 1037.679707
165.881126 2346.864179 1038.990724
166.898802 2367.107619 1040.304518
167.916477 2384.011863 1041.622181
168.934153 2399.626618 1042.942642
169.951829 2415.774038 1045.532960
170.969504 2429.921076 1046.800898
171.987180 2443.162870 1048.073013
173.004855 2454.520798 1049.348224
174.022531 2465.987862 1050.625437
175.040207 2475.961509 1051.906870
176.057882 2487.209525 1053.190879
177.075558 2496.551638 1054.478025
178.093233 2505.810348 1055.768322
179.110909 2512.398688 1057.061781
180.128585 2518.898032 1058.358412
181.146260 2524.197589 1059.658790
182.163936 2529.423519 1060.961241
183.181612 2534.683982 1062.267463
184.199287 2539.234345 1063.576905
185.216963 2543.186486 1064.889579
186.234638 2546.456923 1066.205497
187.252314 2549.735784 1067.524672
188.269990 2553.639191 1068.846544
189.287665 2556.237219 1070.112142
190.305341 2558.182667 1071.380168
191.323017 2558.215389 1072.651778
192.340692 2559.524952 1073.925256
193.358368 2561.459007 1075.202918
194.376043 2562.108718 1076.483623
195.393719 2560.835857 1077.766222
196.411395 2560.186791 1079.053045
197.429070 2559.551157 1080.342360
198.446746 2558.912565 1081.634176
199.464421 2557.011774 1081.634761
200.482097 2556.361377 1081.634761
201.499773 2555.084426 1081.634761
202.517448 2555.084426 1081.634761
203.535124 2552.524574 1081.634761
204.552800 2550.594225 1081.634176
205.570475 2548.689528 1081.634761
206.588151 2548.046604 1081.634761
207.605826 2545.513787 1082.930258
208.623502 2542.979533 1082.930258
209.641178 2542.349181 1082.930258
210.658853 2542.362109 1082.930258
211.676529 2541.722373 1082.930258
212.694205 2540.469682 1082.930258
213.711880 2540.469682 1082.930258
214.729556 2541.722373 1082.929671
215.747231 2541.722373 1082.930258
216.764907 2541.086187 1082.930258
217.782583 2541.070045 1082.930258
218.800258 2542.339486 1084.228861
219.817934 2541.683611 1085.530583
220.835610 2541.686841 1086.835434
221.853285 2541.047445 1088.143426
222.870961 2541.673921 1089.454570
223.888636 2541.673921 1090.768283
224.906312 2541.648081 1092.085764
225.923988 2540.330929 1093.407029
226.941663 2539.656740 1093.406431
227.959339 2539.656740 1093.406431
228.977014 2537.027923 1093.406431
229.994690 2535.702694 1093.406431
231.012366 2533.772014 1092.086360
232.030041 2531.841066 1090.768283
233.047717 2529.228396 1089.454570
234.065393 2526.014795 1088.143426
235.083068 2524.095648 1086.835434
236.100744 2522.179415 1085.530583
237.118419 2520.218453 1084.228861
238.136095 2517.629702 1082.930258
239.153771 2515.694791 1080.280506
240.171446 2513.794447 1077.644270
241.189122 2510.553740 1075.020291
242.206798 2508.009957 1072.409060
243.224473 2506.080378 1069.810483
244.242149 2504.166307 1067.224469
245.259824 2503.555048 1064.650361
246.277500 2502.937823 1062.089768
247.295176 2501.012910 1059.539778
248.312851 2500.409442 1057.003121
249.330527 2499.144043 1054.478025
250.348202 2499.144043 1053.190879
251.365878 2498.525870 1051.906870
252.383554 2497.302913 1050.625437
253.401229 2496.698117 1049.347673
254.418905 2496.043771 1048.073013
255.436581 2495.424016 1046.801446
256.454256 2494.860587 1045.532414
257.471932 2495.551679 1044.267000
258.489607 2496.844613 1044.267000
259.507283 2498.095202 1044.267000
260.524959 2499.443874 1044.267000
261.542634 2501.363243 1044.267000
262.560310 2503.918633 1044.266455
263.577986 2505.857442 1044.267000
264.595661 2507.761522 1044.267000
265.613337 2510.292198 1044.267000
266.631012 2514.717383 1044.267000
267.648688 2517.911795 1044.267000
268.666364 2520.504303 1044.267000
269.684039 2523.044861 1044.267000
270.701715 2526.847757 1044.266455
271.719390 2531.937223 1044.267000
272.737066 2535.792714 1044.267000
273.754742 2540.886032 1044.267000
274.772417 2545.957719 1044.267000
275.790093 2552.270500 1044.267000
276.807769 2556.671827 1044.267000
277.825444 2560.481780 1044.267000
278.843120 2564.898340 1044.267000
279.860795 2571.216262 1044.266455
280.878471 2576.907814 1045.532960
281.896147 2582.537912 1046.800898
282.913822 2588.199364 1048.073013
283.931498 2592.621399 1049.347673
284.949174 2597.655616 1050.625989
285.966849 2601.392525 1051.906870
286.984525 2606.392961 1053.190879
288.002200 2612.067491 1054.478025
289.019876 2616.513339 1055.768322
290.037552 2620.898785 1057.061781
291.055227 2624.651249 1058.358412
292.072903 2628.476653 1059.658228
293.090579 2631.599723 1060.961804
294.108254 2634.730223 1062.267463
295.125930 2636.567611 1064.830048
296.143605 2639.664657 1067.404457
297.161281 2643.464101 1069.991344
298.178957 2645.968140 1072.590800
299.196632 2648.490956 1075.202918
300.214308 2651.612578 1077.709307
301.231983 2654.153219 1080.227409
302.249659 2656.702262 1082.757306
303.267335 2659.242063 1085.299081
304.285010 2662.403272 1087.852226
305.302686 2664.964643 1090.418006
306.320362 2667.545178 1094.204437
307.338037 2670.127151 1098.016653
308.355713 2674.565550 1101.855525
309.373388 2677.781244 1105.721945
310.391064 2680.386673 1109.614980
311.408740 2684.243090 1113.534285
312.426415 2686.857505 1118.692115
313.444091 2690.091988 1123.897316
314.461767 2693.965517 1127.742811
315.479442 2696.613458 1132.803030
316.497118 2698.574613 1137.908865
317.514793 2701.155014 1143.059628
318.532469 2703.711114 1148.257892
319.550145 2705.020247 1152.099615
320.567820 2706.290366 1155.967131
321.585496 2707.558013 1161.057212
322.603171 2709.487406 1166.192318
323.620847 2710.144613 1171.372362
324.638523 2710.769072 1176.598630
325.656198 2711.397495 1180.462635
326.673874 2712.018854 1184.351402
327.691550 2710.111562 1189.472219
328.709225 2708.826848 1193.419960
329.726901 2709.454370 1198.618951
330.744576 2708.815841 1203.862714
331.762252 2708.170279 1207.741138
332.779928 2706.902059 1211.643164
333.797603 2705.646007 1215.572702
334.815279 2704.376492 1219.366466
335.832955 2703.100862 1221.960587
336.850630 2701.848334 1225.795143
337.868306 2700.596967 1228.415964
338.885981 2699.324899 1232.291205
339.903657 2698.705701 1236.189446
340.921333 2697.453604 1231.956458
341.939008 2696.838900 1227.751606
342.956684 2695.566736 1223.575361
343.974360 2694.949261 1219.426687
344.992035 2693.704274 1215.306051
346.009711 2693.087652 1211.212436
347.027386 2693.087652 1205.905318
348.045062 2693.087652 1201.875406
349.062738 2690.555210 1196.648188
350.080413 2689.914703 1191.466242
351.098089 2689.918321 1186.329686
352.115764 2690.529873 1181.235833
353.133440 2689.245572 1176.184845
354.151116 2688.584003 1170.054560
355.168791 2689.173254 1165.097862
356.186467 2689.129865 1159.081636
357.204143 2689.057553 1154.216613
358.221818 2689.675948 1148.310634
359.239494 2689.650628 1142.463483
360.257169 2690.859286 1142.464135
361.274845 2690.790500 1142.463483
362.292521 2691.953079 1142.464135
363.310196 2693.174687 1142.463483
364.327872 2694.985575 1142.464135
365.345548 2696.159052 1142.463483
366.363223 2699.211965 1142.464135
367.380899 2702.271800 1142.464135
368.398574 2706.667605 1143.727029
369.416250 2710.379670 1144.994684
370.433926 2715.306864 1146.263182
371.451601 2719.626867 1147.535810
372.469277 2725.200336 1148.811268
373.486952 2730.852627 1150.088241
374.504628 2736.475994 1151.369381
375.522304 2742.746806 1152.652715
376.539979 2748.993525 1155.173937
377.557655 2755.261171 1157.706884
378.575331 2762.755296 1160.250962
379.593006 2769.649625 1164.008169
380.610682 2777.287895 1167.791152
381.628357 2784.317056 1171.597432
382.646033 2791.315659 1175.428605
383.663709 2798.921296 1179.284222
384.681384 2806.580308 1184.361922
385.699060 2813.556842 1189.482123
386.716736 2819.935818 1194.646788
387.734411 2826.315827 1198.465964
388.752087 2832.696685 1202.309637
389.769762 2838.989547 1206.178044
390.787438 2845.302335 1210.070692
391.805114 2850.493064 1215.198241
392.822789 2856.865333 1220.367196
393.840465 2862.618638 1225.581814
394.858140 2868.304660 1230.838915
395.875816 2872.799615 1234.729483
396.893492 2877.871756 1238.643957
397.911167 2881.636770 1243.799659
398.928843 2885.432461 1247.615495
399.946519 2889.826798 1251.454816
400.964194 2894.213599 1255.316264
401.981870 2899.845148 1259.202409
402.999545 2903.001994 1264.321603
404.017221 2906.115047 1268.111003
405.034897 2909.179771 1271.923186
406.052572 2912.352744 1275.757545
407.070248 2915.519896 1279.615092
408.087924 2918.004085 1283.496038
409.105599 2919.861482 1288.609976
410.123275 2921.725513 1293.764830
411.140950 2924.220293 1297.580661
412.158626 2926.685076 1301.419067
413.176302 2928.557832 1305.280250
414.193977 2930.415811 1309.164413
415.211653 2932.886752 1314.283236
416.229329 2934.724393 1319.442245
417.247004 2937.228490 1323.263300
418.264680 2940.303028 1327.104788
419.282355 2941.526858 1330.969531
420.300031 2944.016581 1334.856850
421.317707 2945.256517 1339.980530
422.335382 2948.347893 1343.777169
423.353058 2950.853534 1347.592660
424.370733 2953.341632 1351.431707
425.388409 2956.450013 1355.291771
426.406085 2960.787333 1359.173025
427.423760 2964.544053 1363.078431
428.441436 2967.645248 1366.862470
429.459112 2971.388500 1369.444676
430.476787 2975.167762 1373.264194
431.494463 2978.308976 1377.106974
432.512138 2982.666235 1380.969413
433.529814 2986.443042 1384.854538
434.547490 2989.603653 1387.408986
435.565165 2993.994048 1389.971909
436.582841 2997.759175 1392.546257
437.600517 3001.511261 1395.128212
438.618192 3005.936725 1397.720737
439.635868 3009.107063 1401.558393
440.653543 3013.500482 1402.842299
441.671219 3015.408739 1405.371752
442.688895 3018.599098 1407.910344
443.706570 3021.796216 1410.456134
444.724246 3024.332265 1413.014143
445.741921 3026.222215 1415.579443
446.759597 3029.380446 1418.153068
447.777273 3030.688754 1419.422238
448.794948 3031.961421 1422.010880
449.812624 3033.879330 1423.286967
450.830300 3034.519173 1424.563318
451.847975 3034.551402 1425.841960
452.865651 3035.799668 1427.124936
453.883326 3037.081243 1428.409202
454.901002 3037.713209 1429.695782
455.918678 3038.340823 1430.983658
456.936353 3038.964078 1432.274882
457.954029 3039.606067 1433.568439
458.971705 3040.225220 1433.568439
459.989380 3040.229841 1434.864334
461.007056 3043.320141 1434.864334
462.024731 3045.178265 1434.864334
463.042407 3046.402808 1434.863304
464.060083 3048.232178 1434.864334
465.077758 3051.231706 1434.864334
466.095434 3053.663557 1434.864334
467.113110 3057.304589 1434.864334
468.130785 3060.378202 1434.863304
469.148461 3063.425154 1434.864334
470.166136 3067.682274 1434.864334
471.183812 3072.017302 1434.864334
472.201488 3075.016567 1434.863304
473.219163 3079.230131 1434.864334
474.236839 3082.305256 1434.864334
475.254514 3085.891151 1434.864334
476.272190 3087.687230 1436.118230
477.289866 3091.366894 1436.117199
478.307541 3094.399292 1436.118230
479.325217 3091.137554 1437.374320
480.342893 3087.935129 1438.632608
481.360568 3085.386530 1439.892066
482.378244 3082.167503 1441.155807
483.395919 3079.642638 1442.420728
484.413595 3075.304993 1443.686830
485.431271 3070.932396 1444.956200
486.448946 3067.865793 1446.227804
487.466622 3064.143243 1447.501648
488.484298 3061.750924 1448.777739
489.501973 3058.777468 1451.293502
490.519649 3056.991492 1453.816960
491.537324 3055.277610 1456.350270
492.555000 3052.363292 1458.892423
493.572676 3050.584797 1461.442400
494.590351 3049.519624 1464.001306
495.608027 3049.612623 1466.485311
496.625702 3047.865199 1470.289853
497.643378 3047.962742 1474.115273
498.661054 3054.750289 1477.831784
499.678729 3060.303276 1481.569278
500.696405 3065.843590 1485.323518
501.714081 3073.268252 1490.280761
502.731756 3081.236808 1495.267851
503.749432 3087.439370 1500.290681
504.767107 3094.878131 1506.515302
505.784783 3102.891895 1512.790645
506.802459 3112.753261 1519.119640
507.820134 3120.183217 1526.663949
508.837810 3128.842610 1532.900647
509.855486 3137.412388 1540.338382
510.873161 3147.182721 1547.846249
511.890837 3157.093832 1556.564382
512.908512 3166.992339 1565.380055
513.926188 3177.366980 1575.425877
514.943864 3188.938211 1584.173473
515.961539 3199.513674 1593.018755
516.979215 3210.607848 1603.095899
517.996890 3225.031404 1610.726148
519.014566 3237.875371 1618.426760
520.032242 3251.974355 1626.198712
521.049917 3267.098359 1632.630404
522.067593 3279.333639 1639.110488
523.085269 3295.408672 1646.840084
524.102944 3311.943697 1653.232773
525.120620 3325.590251 1659.678039
526.138295 3339.143443 1666.169593
527.155971 3355.867987 1672.520488
528.173647 3370.237433 1678.917166
529.191322 3385.085651 1683.990721
530.208998 3398.112688 1689.096460
531.226674 3412.549994 1692.886660
532.244349 3427.539250 1696.693907
533.262025 3439.481464 1700.409884
534.279700 3451.334458 1704.140721
535.297376 3465.321660 1707.886508
536.315052 3477.928198 1710.357756
537.332727 3487.042151 1714.132422
538.350403 3497.542976 1717.922310
539.368079 3507.393586 1721.728995
540.385754 3514.117087 1726.759330
541.403430 3525.135982 1731.819146
542.421105 3534.867937 1735.577783
543.438781 3542.136369 1739.352769
544.456457 3553.104703 1744.340705
545.474132 3563.429944 1749.355800
546.491808 3571.868677 1753.084991
547.509483 3582.226425 1756.825487
548.527159 3590.116410 1760.583528
549.544835 3601.008282 1764.359238
550.562510 3611.888169 1769.346253
551.580186 3620.958106 1774.361540
552.597862 3632.532965 1778.089141
553.615537 3642.854541 1781.830849
554.633213 3654.984119 1785.588338
555.650888 3666.535894 1790.556783
556.668564 3676.740937 1795.551342
557.686240 3687.716769 1800.572222
558.703915 3700.373368 1806.803881
559.721591 3713.186081 1811.751747
560.739267 3724.651419 1816.725135
561.756942 3737.772811 1821.725903
562.774618 3749.960157 1827.931339
563.792293 3761.972477 1832.858012
564.809969 3772.261056 1837.809625
565.827645 3783.199944 1842.789763
566.845320 3792.950422 1850.114800
567.862996 3804.588714 1857.498303
568.880671 3815.992826 1864.940975
569.898347 3826.784430 1872.247212
570.916023 3838.882118 1879.607388
571.933698 3849.744473 1887.027441
572.951374 3861.264757 1894.502721
573.969050 3870.905308 1902.037463
574.986725 3880.586589 1908.274948
576.004401 3892.580353 1914.555311
577.022076 3901.731003 1923.195274
578.039752 3911.827410 1930.565289
579.057428 3919.754780 1937.990130
580.075103 3929.303963 1945.468517
581.092779 3934.088285 1953.006752
582.110455 3943.085504 1959.247649
583.128130 3947.903466 1967.843470
584.145806 3956.901430 1976.509188
585.163481 3962.970008 1985.251566
586.181157 3972.604916 1991.383285
587.198833 3978.690136 1997.551002
588.216508 3984.651124 2003.757044
589.234184 3988.298333 2010.986017
590.251860 3994.224352 2018.265301
591.269535 3997.265870 2025.599527
592.287211 4002.617712 2032.981052
593.304886 4006.225675 2041.562122
594.322562 4012.197079 2050.213837
595.340238 4012.792783 2058.934954
596.357913 4018.783795 2065.057574
597.375589 4018.775720 2071.214571
598.393264 4024.744127 2078.563463
599.410940 4024.744127 2085.966867
600.428616 4030.681548 2093.418815
601.446291 4031.274629 2100.921990
602.463967 4037.239497 2108.136881
603.481643 4037.842661 2114.249832
604.499318 4043.213870 2120.398338
605.516994 4043.213870 2126.582709
606.534669 4047.984812 2135.107465
607.552345 4047.984812 2143.698545
608.570021 4050.985706 2148.576192
609.587696 4050.993911 2153.473769
610.605372 4054.007488 2160.704563
611.623048 4054.607453 2166.830804
612.640723 4056.400188 2171.696497
613.658399 4056.400188 2176.588828
614.676074 4059.380620 2181.498493
615.693750 4059.973935 2187.602202
616.711426 4062.959622 2193.735350
617.729101 4062.967876 2198.611577
618.746777 4063.587010 2203.509530
619.764452 4063.000892 2209.590729
620.782128 4063.017400 2215.710495
621.799804 4063.009146 2219.312457
622.817479 4063.025654 2223.010156
623.835155 4063.611779 2226.715239
624.852831 4064.214591 2230.437668
625.870506 4064.809320 2232.840620
626.888182 4065.412487 2235.251253
627.905857 4068.364802 2238.917081
628.923533 4068.969025 2242.594951
629.941209 4072.506913 2243.795065
630.958884 4073.112367 2247.408177
631.976560 4076.665777 2251.032943
632.994236 4077.264156 2253.480501
634.011911 4077.812824 2255.933387
635.029587 4078.403224 2257.150370
636.047262 4078.952199 2258.366117
637.064938 4080.133828 2259.585728
638.082614 4083.682829 2261.995646
639.100289 4084.867201 2263.193570
640.117965 4089.001200 2263.193570
641.135640 4089.594844 2263.193570
642.153316 4090.197025 2264.418401
643.170992 4091.376810 2265.639426
644.188667 4092.574024 2266.866907
645.206343 4093.746802 2265.639426
646.224019 4094.962173 2264.415837
647.241694 4096.127930 2264.418401
648.259370 4096.723645 2264.415837
649.277045 4097.890406 2264.415837
650.294721 4099.083035 2263.219180
651.312397 4100.242734 2260.804100
652.330072 4101.445144 2259.585728
653.347748 4105.022906 2258.366117
654.365424 4105.612783 2257.147823
655.383099 4109.780456 2255.935931
656.400775 4110.971566 2253.480501
657.418450 4111.546250 2249.850385
658.436126 4112.729927 2246.226900
659.453802 4113.914287 2243.795065
660.471477 4115.099328 2240.115769
661.489153 4116.318941 2236.446019
662.506829 4117.488414 2232.788273
663.524504 4117.488414 2229.139987
664.542180 4118.667035 2225.426837
665.559855 4119.871790 2221.723569
666.577531 4120.465942 2216.857427
667.595207 4121.663256 2212.010109
668.612882 4122.835769 2207.186378
669.630558 4122.827270 2201.113543
670.648233 4123.991942 2196.226224
671.665909 4125.191306 2191.362962
672.683585 4126.357314 2186.516409
673.701260 4127.549536 2181.693627
674.718936 4125.769972 2175.622799
675.736612 4126.357314 2170.737161
676.754287 4127.583609 2165.871070
677.771963 4128.179989 2161.029082
678.789638 4124.008949 2156.208695
679.807314 4123.991942 2152.562895
680.824990 4123.379769 2148.931712
